sess,DUAL_CONTROL,DUAL_BLEND75,diff_blend75_minus_control
2022-01-03,726.0999999997788,677.7999999997904,-48.29999999998836
2022-01-04,3533.9999999999477,3600.7999999998196,66.79999999987194
2022-01-05,4222.600000000134,4235.100000000163,12.500000000029104
2022-01-06,-1987.4000000000233,-1903.9000000000524,83.4999999999709
2022-01-07,-1280.099999999884,-1231.0999999998257,49.00000000005821
2022-01-10,3861.800000000094,3755.300000000094,-106.5
2022-01-11,-2453.2999999999465,-2453.2999999999465,0.0
2022-01-12,-1155.5999999998794,-1228.8999999998678,-73.29999999998836
2022-01-13,2440.00000000007,2233.700000000111,-206.29999999995925
2022-01-14,891.5000000000109,975.3000000001448,83.80000000013388
2022-01-17,-301.99999999998727,-304.49999999998727,-2.5
2022-01-18,87.6000000001568,542.1000000000986,454.4999999999418
2022-01-19,-472.8999999999578,-486.8999999999578,-14.0
2022-01-20,-277.2000000000553,-178.90000000006694,98.29999999998836
2022-01-21,-4693.599999999933,-4304.2999999998865,389.30000000004657
2022-01-24,6939.9999999999745,6967.500000000091,27.500000000116415
2022-01-25,1891.6999999998952,1929.699999999837,37.99999999994179
2022-01-26,1586.4999999998308,1586.4999999998308,0.0
2022-01-27,-494.7999999999538,-835.0999999999713,-340.30000000001746
2022-01-28,2764.3000000000193,2805.3000000000484,41.000000000029104
2022-01-31,-715.7000000000116,-867.0,-151.29999999998836
2022-02-01,-829.6000000000058,-1039.4000000000033,-209.79999999999745
2022-02-02,566.0000000001328,579.5000000000837,13.499999999950887
2022-02-03,-30.800000000046566,-5.800000000046566,25.0
2022-02-04,370.5999999999476,348.2999999999538,-22.299999999993815
2022-02-07,-2388.2999999999465,-2283.1999999999643,105.09999999998217
2022-02-08,-608.1999999998843,-293.49999999993634,314.699999999948
2022-02-09,-491.09999999998763,-506.0999999999822,-14.999999999994543
2022-02-10,1618.5999999998821,1571.599999999824,-47.00000000005821
2022-02-11,-1810.6000000000568,-1825.0999999999985,-14.499999999941792
2022-02-14,-1037.0999999999312,-1030.0999999999312,7.0
2022-02-15,1052.2000000000698,1023.7000000000698,-28.5
2022-02-16,-817.8999999998941,-751.3999999998941,66.5
2022-02-17,3960.100000000064,3887.100000000093,-72.9999999999709
2022-02-18,-3669.899999999896,-3474.7999999998992,195.09999999999673
2022-02-21,921.3000000001048,881.5000000000437,-39.80000000006112
2022-02-22,1178.600000000035,1181.1000000000004,2.499999999965439
2022-02-23,2114.0000000000873,2090.5000000000873,-23.5
2022-02-24,9521.600000000071,9280.100000000013,-241.5000000000582
2022-02-25,-3164.199999999917,-3153.199999999917,11.0
2022-02-28,-6116.599999999917,-5989.099999999917,127.5
2022-03-01,-41.6999999999407,-41.6999999999407,0.0
2022-03-02,-1898.9999999999418,-1673.899999999965,225.09999999997672
2022-03-03,619.8000000001048,951.8000000001048,332.0
2022-03-04,-2185.199999999908,-2185.199999999908,0.0
2022-03-07,-709.2999999999429,-733.7999999999429,-24.5
2022-03-08,-2475.899999999785,-2849.1999999997734,-373.29999999998836
2022-03-09,6052.200000000037,5979.200000000037,-73.0
2022-03-10,-445.6000000000877,-429.100000000044,16.500000000043656
2022-03-11,3724.400000000034,3642.6000000000604,-81.7999999999738
2022-03-14,-2690.999999999969,-2771.7999999999465,-80.79999999997744
2022-03-15,3199.900000000127,3214.1000000001277,14.200000000000728
2022-03-16,-352.400000000016,-41.30000000003929,311.0999999999767
2022-03-17,-2633.0999999999185,-2736.899999999965,-103.80000000004657
2022-03-18,288.70000000001164,254.70000000001164,-34.0
2022-03-21,-875.1999999999407,-876.1999999999407,-1.0
2022-03-22,-142.40000000002328,-142.40000000002328,0.0
2022-03-23,127.3000000000502,139.3000000000502,12.0
2022-03-24,2925.099999999906,2743.7999999999174,-181.29999999998836
2022-03-25,-549.399999999885,-549.399999999885,0.0
2022-03-28,-699.2999999999738,-698.7999999999738,0.5
2022-03-29,-553.7999999999865,-835.8999999999924,-282.1000000000058
2022-03-30,-24.69999999990796,1.3000000000920409,26.0
2022-03-31,-1203.6999999999553,-1357.9999999999436,-154.29999999998836
2022-04-01,-1189.4999999999982,-1189.5000000000273,-2.9103830456733704e-11
2022-04-04,822.6999999999825,720.8999999999796,-101.80000000000291
2022-04-05,1371.3000000000975,1369.800000000112,-1.499999999985448
2022-04-06,-895.5999999999276,-895.5999999999276,0.0
2022-04-07,-709.5000000000055,-709.5000000000055,0.0
2022-04-08,-256.49999999998545,-266.99999999998545,-10.5
2022-04-11,-1735.400000000045,-1751.4000000000524,-16.000000000007276
2022-04-12,898.300000000112,742.8000000001266,-155.49999999998545
2022-04-13,1595.50000000012,1633.5000000001128,37.999999999992724
2022-04-14,3880.899999999885,4046.399999999827,165.4999999999418
2022-04-18,690.7000000001608,629.7000000001608,-61.0
2022-04-19,-2470.100000000093,-2385.100000000093,85.0
2022-04-20,-1039.999999999971,-1006.4999999999709,33.5
2022-04-21,2606.400000000158,2673.400000000158,67.0
2022-04-22,-2132.399999999925,-2155.899999999925,-23.5
2022-04-25,635.3000000000429,559.8000000000429,-75.5
2022-04-26,11566.499999999753,11566.499999999753,0.0
2022-04-27,-890.099999999853,-1246.6999999997715,-356.5999999999185
2022-04-28,-769.799999999912,-1167.8999999999323,-398.1000000000204
2022-04-29,-364.90000000000146,-364.8999999999578,4.3655745685100555e-11
2022-05-02,-1930.199999999928,-1930.1999999999862,-5.820766091346741e-11
2022-05-03,-2998.4999999999127,-3022.699999999895,-24.199999999982538
2022-05-04,-2777.700000000161,-2837.2000000001317,-59.499999999970896
2022-05-05,8261.099999999657,8247.599999999657,-13.5
2022-05-06,-2204.599999999784,-2178.099999999784,26.5
2022-05-09,-410.7000000000189,-410.7000000000189,0.0
2022-05-10,-2198.2999999999156,-2198.2999999999156,0.0
2022-05-11,-2418.4000000000015,-2715.19999999999,-296.79999999998836
2022-05-12,-2942.299999999974,-2942.2999999999756,-1.8189894035458565e-12
2022-05-13,3015.500000000058,3015.50000000006,1.8189894035458565e-12
2022-05-16,-2534.099999999955,-2523.599999999984,10.499999999970896
2022-05-17,1325.600000000064,1319.1000000000931,-6.499999999970896
2022-05-18,10721.59999999994,10721.59999999994,0.0
2022-05-19,-1220.5999999998494,-1409.3999999998377,-188.79999999998836
2022-05-20,1193.2000000000298,1193.2000000000298,0.0
2022-05-23,-2982.4999999998618,-2898.9999999998618,83.5
2022-05-24,-418.300000000203,-308.00000000021464,110.29999999998836
2022-05-25,-2400.0999999999876,-2541.399999999976,-141.29999999998836
2022-05-26,2263.5000000000946,2113.200000000048,-150.30000000004657
2022-05-27,1242.5999999999804,1242.5999999999804,0.0
2022-05-30,-370.299999999992,-370.299999999992,0.0
2022-05-31,-439.1000000001586,-333.1000000001586,106.0
2022-06-01,-1448.9999999999745,-1210.6999999999862,238.29999999998836
2022-06-02,1165.7999999999993,1383.5000000000036,217.70000000000437
2022-06-03,4014.299999999552,3833.999999999629,-180.29999999992287
2022-06-06,-801.4999999999563,-801.4999999999418,1.4551915228366852e-11
2022-06-07,756.500000000091,918.3000000000648,161.7999999999738
2022-06-08,-836.9999999999418,-948.5,-111.50000000005821
2022-06-09,-863.3999999999724,-637.8999999999724,225.5
2022-06-10,-2279.600000000002,-2262.600000000002,17.0
2022-06-13,-1956.4000000000378,-2090.1999999999935,-133.79999999995562
2022-06-14,-3836.099999999966,-3525.299999999952,310.8000000000138
2022-06-15,-921.699999999928,-916.199999999928,5.5
2022-06-16,1755.5000000001091,1730.0000000001091,-25.5
2022-06-17,-901.3999999999069,-890.8999999999069,10.5
2022-06-20,-699.6999999999935,-699.6999999999935,0.0
2022-06-21,-319.1999999999789,-265.39999999996144,53.80000000001746
2022-06-22,1741.2000000000407,1805.2000000000698,64.0000000000291
2022-06-23,-215.4999999997999,-114.49999999979991,101.0
2022-06-24,798.7999999999702,798.7999999999702,0.0
2022-06-27,-1224.6000000000458,-1401.2000000001972,-176.60000000015134
2022-06-28,443.00000000008004,443.00000000008004,0.0
2022-06-29,-1706.3999999998887,-1706.3999999998887,0.0
2022-06-30,-105.59999999994398,-86.59999999994398,19.0
2022-07-01,-642.4000000000051,-829.1999999999935,-186.79999999998836
2022-07-04,-167.8999999999869,-141.89999999998327,26.000000000003638
2022-07-05,746.0999999999513,759.6000000000058,13.50000000005457
2022-07-06,-5306.799999999876,-5306.799999999876,0.0
2022-07-07,1102.6000000000458,1100.9000000000196,-1.7000000000261934
2022-07-08,-2538.099999999926,-2581.4999999999927,-43.40000000006694
2022-07-11,588.1000000000495,543.3000000000611,-44.79999999998836
2022-07-12,-96.69999999998436,-46.69999999998436,50.0
2022-07-13,-3663.399999999883,-3663.399999999883,0.0
2022-07-14,460.3000000000993,443.8000000000993,-16.5
2022-07-15,-1052.3000000000138,-1057.8000000000138,-5.5
2022-07-18,1087.6000000000313,1059.1000000000313,-28.5
2022-07-19,4298.700000000083,4189.200000000083,-109.5
2022-07-20,-991.6999999999025,-847.5999999999185,144.099999999984
2022-07-21,-1127.0999999999622,-1313.2000000000335,-186.1000000000713
2022-07-22,-145.29999999999745,-185.29999999999745,-40.0
2022-07-25,-1185.5,-1176.5,9.0
2022-07-26,405.5999999999931,405.5999999999931,0.0
2022-07-27,2312.500000000042,2466.6000000000477,154.10000000000582
2022-07-28,4421.499999999933,4209.200000000003,-212.29999999993015
2022-07-29,-724.5999999999694,-661.5999999999676,63.00000000000182
2022-08-01,-656.49999999996,-757.9999999999618,-101.50000000000182
2022-08-02,-294.49999999991996,-356.7999999999083,-62.29999999998836
2022-08-03,5165.699999999884,5261.199999999884,95.5
2022-08-04,-807.0000000000036,-890.3000000000211,-83.30000000001746
2022-08-05,-372.89999999992506,-289.5999999999367,83.29999999998836
2022-08-08,125.50000000005821,323.60000000003856,198.09999999998035
2022-08-09,-211.99999999998545,-264.299999999992,-52.30000000000655
2022-08-10,795.1000000000531,1502.8000000000793,707.7000000000262
2022-08-11,649.5000000000473,649.5000000000473,0.0
2022-08-12,2672.300000000105,2439.0000000000873,-233.30000000001746
2022-08-15,-461.40000000000146,-454.90000000000146,6.5
2022-08-16,-305.59999999996217,-176.7999999999738,128.79999999998836
2022-08-17,-4.599999999998545,-4.599999999998545,0.0
2022-08-18,-1034.6999999999207,-1083.0999999999403,-48.400000000019645
2022-08-19,820.3000000000975,867.6000000000822,47.29999999998472
2022-08-22,17.199999999967986,17.199999999967986,0.0
2022-08-23,-2025.9999999999454,-1928.6999999999862,97.29999999995925
2022-08-24,-930.7999999999665,-910.2999999999374,20.500000000029104
2022-08-25,185.69999999998618,242.19999999998618,56.5
2022-08-26,4160.200000000103,4160.200000000103,0.0
2022-08-29,-1781.8000000000538,-1979.8999999999178,-198.09999999986394
2022-08-30,786.3000000000975,1025.5000000000546,239.19999999995707
2022-08-31,-1845.9999999998763,-1762.9999999998763,83.0
2022-09-01,889.1000000000495,889.1000000000495,0.0
2022-09-02,2240.8999999999687,2343.3999999999687,102.5
2022-09-05,-674.7000000000044,-811.2000000000044,-136.5
2022-09-06,157.1000000000713,101.00000000003638,-56.100000000034925
2022-09-07,2490.900000000074,2490.900000000074,0.0
2022-09-08,-2779.100000000024,-2798.999999999989,-19.899999999965075
2022-09-09,-243.0000000000291,-384.60000000002765,-141.59999999999854
2022-09-12,-1230.1999999999061,-1156.699999999917,73.49999999998909
2022-09-13,3758.8000000000648,3807.1000000000568,48.299999999991996
2022-09-14,-1214.0999999999076,-1471.1999999999134,-257.1000000000058
2022-09-15,1259.5999999997766,1150.099999999813,-109.49999999996362
2022-09-16,162.80000000001382,-82.79999999999927,-245.6000000000131
2022-09-19,-1520.4000000001688,-1448.100000000195,72.2999999999738
2022-09-20,-101.70000000020445,-58.200000000131695,43.50000000007276
2022-09-21,142.5000000001055,408.30000000006476,265.79999999995925
2022-09-22,-1730.0999999999185,-1824.399999999936,-94.30000000001746
2022-09-23,395.50000000000364,204.20000000001528,-191.29999999998836
2022-09-26,-3380.399999999725,-3354.999999999767,25.3999999999578
2022-09-27,-1275.599999999944,-1192.7999999999338,82.80000000001019
2022-09-28,1276.0000000000837,1394.5000000000691,118.49999999998545
2022-09-29,3154.7000000000044,3319.000000000051,164.30000000004657
2022-09-30,-1100.9999999999636,-1090.4999999999345,10.500000000029104
2022-10-03,3555.600000000024,3555.600000000024,0.0
2022-10-04,-45.299999999991996,-45.299999999991996,0.0
2022-10-05,-74.60000000006767,-190.90000000009968,-116.30000000003201
2022-10-06,-1758.8999999999069,-1711.3999999998923,47.50000000001455
2022-10-07,-1018.7000000000189,-957.2000000000189,61.5
2022-10-10,-1331.2000000000116,-1512.500000000029,-181.30000000001746
2022-10-11,-1930.4999999999454,-2003.6999999998698,-73.19999999992433
2022-10-12,-2194.6999999999607,-2220.6999999999607,-26.0
2022-10-13,-835.799999999952,-915.5999999999549,-79.80000000000291
2022-10-14,3416.2000000001062,3354.9000000001324,-61.29999999997381
2022-10-17,3018.700000000099,3083.200000000099,64.5
2022-10-18,-153.99999999995634,-354.50000000007276,-200.50000000011642
2022-10-19,621.6999999998807,564.3999999997177,-57.30000000016298
2022-10-20,-984.1999999999716,-968.1999999999716,16.0
2022-10-21,2672.500000000022,2751.500000000022,79.0
2022-10-24,-1603.7000000000662,-1460.9000000000779,142.79999999998836
2022-10-25,-129.89999999997963,-116.40000000000873,13.499999999970896
2022-10-26,-760.1999999998952,-660.1999999999243,99.9999999999709
2022-10-27,-1469.799999999981,-1419.799999999981,50.0
2022-10-28,3674.600000000086,3729.600000000086,55.0
2022-10-31,-966.6999999999716,-951.6999999999716,15.0
2022-11-01,404.70000000009895,410.20000000009895,5.5
2022-11-02,-3403.199999999979,-3403.199999999979,0.0
2022-11-03,-1491.899999999976,-1433.899999999976,58.0
2022-11-04,-1313.3999999999214,-1328.8999999999214,-15.5
2022-11-07,-2434.099999999964,-2440.599999999964,-6.5
2022-11-08,132.2999999999829,122.7999999999829,-9.5
2022-11-09,1281.7000000001135,1332.2000000001135,50.5
2022-11-10,8826.000000000113,8826.000000000113,0.0
2022-11-11,-1037.9999999999782,-1034.4999999999782,3.5
2022-11-14,-726.5999999999694,-722.0999999999694,4.5
2022-11-15,1728.2000000001135,1728.2000000001135,0.0
2022-11-16,-248.89999999997235,-279.39999999997235,-30.5
2022-11-17,261.6999999999898,195.70000000001892,-65.9999999999709
2022-11-18,-173.6999999999607,-173.6999999999607,0.0
2022-11-21,-161.6999999999207,-223.49999999990905,-61.79999999998836
2022-11-22,1107.9000000000124,1167.6999999999716,59.799999999959255
2022-11-23,-668.9999999999782,-653.9999999999782,15.0
2022-11-24,-21.10000000000582,0.0,21.10000000000582
2022-11-25,226.90000000011787,226.90000000008877,-2.9103830456733704e-11
2022-11-28,-1032.8999999999323,-985.0999999999294,47.80000000000291
2022-11-29,-748.6999999999716,-763.6999999999862,-15.000000000014552
2022-11-30,5367.90000000002,5414.90000000002,47.0
2022-12-01,-850.1999999999243,-855.1999999999243,-5.0
2022-12-02,-821.7000000000044,-733.400000000016,88.29999999998836
2022-12-05,372.20000000000437,379.70000000000437,7.5
2022-12-06,-270.6000000000313,-265.6000000000313,5.0
2022-12-07,-2188.600000000046,-2093.900000000034,94.70000000001164
2022-12-08,-848.3000000000284,-992.1000000000022,-143.7999999999738
2022-12-09,-680.2999999999811,-686.099999999984,-5.80000000000291
2022-12-12,1161.0999999999694,1161.0999999999112,-5.820766091346741e-11
2022-12-13,2033.2000000000116,2094.5000000000146,61.30000000000291
2022-12-14,-1867.0999999999767,-1657.5999999999913,209.49999999998545
2022-12-15,1453.4000000000087,1453.4000000000087,0.0
2022-12-16,-643.300000000032,-626.3000000000247,17.000000000007276
2022-12-19,-749.9000000000196,-744.2000000000153,5.700000000004366
2022-12-20,-848.1999999999207,-997.7999999999556,-149.60000000003492
2022-12-21,108.9000000000051,119.4000000000051,10.5
2022-12-22,5902.399999999889,6073.899999999947,171.5000000000582
2022-12-23,-3022.899999999965,-2717.199999999968,305.6999999999971
2022-12-27,1646.9000000000015,2170.9999999999345,524.0999999999331
2022-12-28,-1079.2000000000335,-1174.7000000000262,-95.49999999999272
2022-12-29,2957.6000000000968,2997.1000000000895,39.499999999992724
2022-12-30,-404.89999999980137,-495.39999999980137,-90.5
2023-01-03,1535.899999999776,1253.79999999977,-282.1000000000058
2023-01-04,-3143.399999999936,-3066.899999999907,76.5000000000291
2023-01-05,-214.19999999998254,-370.29999999995925,-156.09999999997672
2023-01-06,2082.500000000113,2168.300000000101,85.79999999998836
2023-01-09,1617.600000000024,1625.5999999999658,7.999999999941792
2023-01-10,-88.89999999990687,-211.69999999989523,-122.79999999998836
2023-01-11,-405.1000000000131,-405.1000000000131,0.0
2023-01-12,-2667.100000000046,-2775.399999999976,-108.29999999993015
2023-01-13,-404.8999999999651,-404.8999999999651,0.0
2023-01-16,-194.4999999999709,-215.4999999999891,-21.00000000001819
2023-01-17,-797.1000000000531,-560.9000000000378,236.20000000001528
2023-01-18,573.6999999999935,728.2000000000335,154.50000000004002
2023-01-19,-827.6999999999643,-840.9999999999491,-13.29999999998472
2023-01-20,1937.4000000000233,1461.6999999999898,-475.70000000003347
2023-01-23,-391.09999999999127,-391.09999999996944,2.1827872842550278e-11
2023-01-24,-1245.5999999999804,-1330.3999999999687,-84.79999999998836
2023-01-25,1443.100000000035,1443.100000000035,0.0
2023-01-26,-435.20000000002256,-417.200000000008,18.000000000014552
2023-01-27,67.89999999997963,76.39999999997963,8.5
2023-01-30,108.50000000000364,108.50000000001819,1.4551915228366852e-11
2023-01-31,2519.4999999998436,2561.9999999998436,42.5
2023-02-01,-776.3000000000284,-754.300000000032,21.999999999996362
2023-02-02,208.60000000003856,157.1000000000131,-51.500000000025466
2023-02-03,-2769.200000000048,-2610.700000000077,158.4999999999709
2023-02-06,-916.0000000000146,-908.0000000000146,8.0
2023-02-07,2962.899999999976,2866.0999999999876,-96.79999999998836
2023-02-08,-139.4999999999709,-119.4999999999709,20.0
2023-02-09,-839.6999999999025,-780.6999999999025,59.0
2023-02-10,-1458.200000000008,-1458.200000000008,0.0
2023-02-13,1235.6999999999607,1235.6999999999607,0.0
2023-02-14,-367.59999999991123,-392.59999999991123,-25.0
2023-02-15,-530.6999999999534,-530.6999999999534,0.0
2023-02-16,1282.5000000000873,1268.5000000000873,-14.0
2023-02-17,-1199.3000000000284,-1199.3000000000284,0.0
2023-02-20,-209.200000000008,-209.200000000008,0.0
2023-02-21,662.3000000000648,662.3000000000648,0.0
2023-02-22,-1350.0999999999221,-1404.3999999999105,-54.29999999998836
2023-02-23,-140.3999999999869,-140.3999999999869,0.0
2023-02-24,783.3000000000793,657.000000000091,-126.29999999998836
2023-02-27,553.0000000000182,568.5000000000182,15.5
2023-02-28,-1009.0000000000036,-1223.1000000000095,-214.10000000000582
2023-03-01,-2087.999999999982,-2102.9999999999527,-14.999999999970896
2023-03-02,1001.4000000000306,965.6000000000131,-35.80000000001746
2023-03-03,398.9999999999818,421.99999999997453,22.999999999992724
2023-03-06,397.0000000000473,319.2000000000371,-77.80000000001019
2023-03-07,-2626.9999999999673,-2331.200000000008,295.79999999995925
2023-03-08,-1111.500000000011,-1107.9999999999818,3.500000000029104
2023-03-09,594.8000000000429,690.3000000000429,95.5
2023-03-10,-3408.400000000034,-2834.8999999999214,573.5000000001128
2023-03-13,-710.49999999992,-1091.4999999999163,-380.99999999999636
2023-03-14,432.6999999999789,495.99999999999636,63.30000000001746
2023-03-15,-899.599999999944,-575.6999999999789,323.8999999999651
2023-03-16,-298.90000000000873,-381.40000000000873,-82.5
2023-03-17,-347.29999999993015,-142.89999999999418,204.39999999993597
2023-03-20,-922.2999999999993,-728.9000000000196,193.39999999997963
2023-03-21,-138.40000000001965,-159.90000000001965,-21.5
2023-03-22,1386.500000000029,1338.300000000032,-48.19999999999709
2023-03-23,2506.8999999999214,2488.8999999999505,-17.999999999970896
2023-03-24,-916.8999999999396,-916.6999999999352,0.20000000000436557
2023-03-27,-553.6999999999643,-238.09999999995125,315.6000000000131
2023-03-28,110.79999999999927,109.59999999999127,-1.2000000000080036
2023-03-29,591.3000000000393,1040.9000000001433,449.60000000010405
2023-03-30,-341.49999999999636,-347.0000000000109,-5.500000000014552
2023-03-31,220.8999999999687,220.8999999999687,0.0
2023-04-03,-317.8999999998814,-321.3999999998814,-3.5
2023-04-04,-250.7999999998683,-250.7999999998683,0.0
2023-04-05,328.700000000008,328.700000000008,0.0
2023-04-06,1525.7999999999956,1511.3000000000247,-14.499999999970896
2023-04-07,-67.89999999999782,-44.40000000000509,23.499999999992724
2023-04-10,599.300000000072,556.0000000000618,-43.300000000010186
2023-04-11,254.20000000009168,243.90000000009604,-10.299999999995634
2023-04-12,-3003.6000000001295,-3043.100000000042,-39.49999999991269
2023-04-13,3222.7000000000407,3227.69999999999,4.999999999949068
2023-04-14,-343.89999999993233,-343.89999999993233,0.0
2023-04-17,-414.39999999995416,-414.39999999995416,0.0
2023-04-18,-102.19999999992069,-71.19999999992069,31.0
2023-04-19,181.10000000004948,269.40000000000146,88.29999999995198
2023-04-20,583.9000000000196,469.400000000056,-114.49999999996362
2023-04-21,-760.6000000000095,-765.1000000000095,-4.5
2023-04-24,-356.8999999999869,-331.59999999998763,25.299999999999272
2023-04-25,779.6000000000495,846.0000000000618,66.40000000001237
2023-04-26,-961.8999999999214,-899.8999999999214,62.0
2023-04-27,2839.1000000000568,2866.100000000115,27.000000000058208
2023-04-28,-396.09999999996217,-396.09999999996217,0.0
2023-05-01,-249.69999999995343,-252.19999999995343,-2.5
2023-05-02,-646.5999999999949,-661.5999999999949,-15.0
2023-05-03,-870.1999999999571,-700.0999999999221,170.10000000003492
2023-05-04,-1827.4999999998727,-1823.4999999998727,4.0
2023-05-05,2491.000000000051,2504.500000000051,13.5
2023-05-08,-191.0000000000291,-191.0000000000291,0.0
2023-05-09,-109.60000000000946,-109.60000000000946,0.0
2023-05-10,-107.20000000000073,-108.20000000000073,-1.0
2023-05-11,-611.8000000000175,-604.3000000000175,7.5
2023-05-12,-108.39999999993597,-94.39999999993597,14.0
2023-05-15,-134.29999999995925,-170.29999999995925,-36.0
2023-05-16,-454.09999999998763,-551.0999999999876,-97.0
2023-05-17,456.10000000001673,456.10000000001673,0.0
2023-05-18,407.30000000000655,407.30000000000655,0.0
2023-05-19,22.100000000111322,30.100000000111322,8.0
2023-05-22,-411.89999999989595,-646.8999999998923,-234.99999999999636
2023-05-23,767.5000000000509,767.5000000000473,-3.637978807091713e-12
2023-05-24,3126.1000000000167,3235.2000000000517,109.10000000003492
2023-05-25,-1041.1999999999753,-1137.799999999981,-96.60000000000582
2023-05-26,157.79999999998836,894.9999999999745,737.1999999999862
2023-05-29,-173.6999999999971,-173.70000000000073,-3.637978807091713e-12
2023-05-30,-312.09999999993306,-296.59999999993306,15.5
2023-05-31,-262.89999999989595,-297.0999999999585,-34.20000000006257
2023-06-01,1418.100000000064,1812.0000000000218,393.8999999999578
2023-06-02,-677.8999999999614,-674.3999999999614,3.5
2023-06-05,-366.99999999996726,-327.49999999996726,39.5
2023-06-06,-975.7000000000044,-975.7000000000044,0.0
2023-06-07,863.1000000000495,860.1000000000786,-2.999999999970896
2023-06-08,3575.999999999982,3563.999999999778,-12.000000000203727
2023-06-09,-285.3999999998887,-285.3999999998596,2.9103830456733704e-11
2023-06-12,2734.300000000112,2737.3000000000793,2.999999999967258
2023-06-13,-519.5999999998858,-519.5999999998821,3.637978807091713e-12
2023-06-14,-516.0999999999331,-578.0999999999367,-62.00000000000364
2023-06-15,-328.3999999999214,-329.8999999999178,-1.499999999996362
2023-06-16,-117.89999999991778,-108.89999999988868,9.000000000029104
2023-06-19,-43.79999999999927,-43.79999999999927,0.0
2023-06-20,-258.20000000005166,-229.69999999996435,28.50000000008731
2023-06-21,-15.29999999993015,-15.299999999901047,2.9103830456733704e-11
2023-06-22,1866.600000000024,1751.7999999999483,-114.80000000007567
2023-06-23,428.8000000001375,428.80000000014115,3.637978807091713e-12
2023-06-26,-821.3999999999542,-840.8999999999869,-19.500000000032742
2023-06-27,2590.300000000003,2635.8999999999505,45.59999999994761
2023-06-28,-769.0999999998785,-823.5999999998821,-54.50000000000364
2023-06-29,-756.0999999999149,-799.3999999999287,-43.300000000013824
2023-06-30,1649.600000000035,1496.5,-153.10000000003492
2023-07-03,-303.0,-323.0,-20.0
2023-07-04,-89.69999999995343,-70.39999999996508,19.29999999998836
2023-07-05,-37.79999999987194,-54.499999999883585,-16.70000000001164
2023-07-06,714.200000000048,789.2000000000771,75.0000000000291
2023-07-07,-223.09999999988213,-69.29999999989377,153.79999999998836
2023-07-10,-780.9000000000378,-835.9000000000378,-55.0
2023-07-11,-659.9999999999127,-659.9999999999127,0.0
2023-07-12,-171.39999999990687,-171.39999999990687,0.0
2023-07-13,252.20000000001164,252.20000000001164,0.0
2023-07-14,337.0000000000473,324.00000000005093,-12.999999999996362
2023-07-17,1090.2999999999702,1084.2999999999665,-6.000000000003638
2023-07-18,596.5000000000582,612.5000000000582,16.0
2023-07-19,-1001.799999999901,-985.299999999901,16.5
2023-07-20,-369.8999999999651,-543.5000000000146,-173.60000000004948
2023-07-21,-1096.599999999933,-1217.8999999999505,-121.30000000001746
2023-07-24,-1449.3999999999432,-1463.2000000000116,-13.800000000068394
2023-07-25,932.300000000123,682.8999999999942,-249.40000000012878
2023-07-26,-472.19999999982247,-495.6999999998261,-23.500000000003638
2023-07-27,2315.6000000000786,2334.8000000000866,19.200000000008004
2023-07-28,2299.8999999999614,2371.9000000000815,72.00000000012005
2023-07-31,-590.2999999999811,-588.2999999999811,2.0
2023-08-01,-415.79999999993015,-394.79999999993015,21.0
2023-08-02,1249.4000000001324,799.1000000000568,-450.30000000007567
2023-08-03,-1406.4999999999854,-1414.699999999968,-8.199999999982538
2023-08-04,-205.39999999997963,-224.39999999997963,-19.0
2023-08-07,-2.8999999999432475,13.099999999998545,15.999999999941792
2023-08-08,704.1000000000786,704.1000000000786,0.0
2023-08-09,514.2000000000626,522.7000000000626,8.5
2023-08-10,282.0000000001455,565.1000000001222,283.0999999999767
2023-08-11,-701.299999999901,-703.799999999901,-2.5
2023-08-14,598.9000000001106,607.9000000001106,9.0
2023-08-15,1610.8999999995722,1403.999999999316,-206.9000000002561
2023-08-16,-1310.1999999999607,-1293.1999999999607,17.0
2023-08-17,-1119.4000000000087,-1145.9000000000087,-26.5
2023-08-18,-294.299999999952,-186.50000000002183,107.79999999993015
2023-08-21,-538.5999999999694,-499.59999999996944,39.0
2023-08-22,6.599999999823922,-1.4000000001760782,-8.0
2023-08-23,3693.800000000105,3693.800000000105,0.0
2023-08-24,4261.200000000055,4266.700000000055,5.5
2023-08-25,1137.199999999997,1097.400000000067,-39.79999999993015
2023-08-28,-1259.4000000000015,-1138.3999999999141,121.00000000008731
2023-08-29,136.60000000004948,156.60000000002037,19.999999999970896
2023-08-30,-514.9999999999127,-514.9999999999127,0.0
2023-08-31,-399.1999999999025,-412.6999999999025,-13.5
2023-09-01,144.80000000005384,-29.699999999917054,-174.4999999999709
2023-09-04,-195.29999999998836,-195.29999999998836,0.0
2023-09-05,-534.9999999999709,-748.1999999999825,-213.20000000001164
2023-09-06,232.7000000000553,-114.29999999993015,-346.99999999998545
2023-09-07,-382.49999999991996,-374.9999999999345,7.499999999985448
2023-09-08,-1829.4000000001397,-1825.899999999936,3.500000000203727
2023-09-11,412.90000000003056,517.2000000000189,104.29999999998836
2023-09-12,418.5000000000873,418.5000000000873,0.0
2023-09-13,-620.9999999999491,-620.9999999998909,5.820766091346741e-11
2023-09-14,-559.5999999998821,-559.5999999998821,0.0
2023-09-15,1633.1000000000422,1633.1000000000422,0.0
2023-09-18,-638.3999999999214,-638.3999999999214,0.0
2023-09-19,341.3999999998341,387.19999999976426,45.79999999993015
2023-09-20,2887.599999999882,2486.199999999859,-401.4000000000233
2023-09-21,-1325.200000000019,-1291.700000000019,33.5
2023-09-22,-1010.4999999999636,-909.1999999998734,101.30000000009022
2023-09-25,-39.399999999877764,92.40000000000873,131.7999999998865
2023-09-26,2245.4999999994543,2173.1999999994077,-72.30000000004657
2023-09-27,-34.59999999989668,-24.59999999989668,10.0
2023-09-28,-2857.199999999859,-3125.199999999859,-268.0
2023-09-29,-53.39999999997235,84.70000000009168,138.10000000006403
2023-10-02,-2151.1999999998443,-2483.299999999901,-332.10000000005675
2023-10-03,1857.9999999998763,1698.3999999997177,-159.60000000015862
2023-10-04,1891.4000000001397,1905.4000000001397,14.0
2023-10-05,-556.7000000000116,-538.1999999999534,18.500000000058208
2023-10-06,-1255.199999999968,-1255.199999999968,0.0
2023-10-09,-1744.2000000002445,-1525.6000000002387,218.60000000000582
2023-10-10,-59.19999999999709,-69.19999999996799,-9.999999999970896
2023-10-11,297.40000000000146,213.40000000000146,-84.0
2023-10-12,192.50000000008004,201.50000000008004,9.0
2023-10-13,256.3000000000975,256.3000000000975,0.0
2023-10-16,328.7000000000553,240.7000000000553,-88.0
2023-10-17,583.4000000000669,661.7000000000844,78.30000000001746
2023-10-18,-1003.3999999997686,-832.4999999997744,170.89999999999418
2023-10-19,-2301.699999999939,-2322.199999999939,-20.5
2023-10-20,-832.4999999999854,-928.9999999999927,-96.50000000000728
2023-10-23,1124.0000000000655,1139.7000000000771,15.700000000011642
2023-10-24,-890.1999999999098,-742.5999999999185,147.59999999999127
2023-10-25,3910.7999999996828,3869.7999999997337,-40.99999999994907
2023-10-26,-1855.599999999904,-2005.8999999999214,-150.30000000001746
2023-10-27,-220.6999999999607,-220.6999999999607,0.0
2023-10-30,-354.299999999952,-350.299999999952,4.0
2023-10-31,-1464.099999999955,-1454.599999999984,9.499999999970896
2023-11-01,-150.599999999984,-146.099999999984,4.5
2023-11-02,-674.2999999999593,-691.7999999999593,-17.5
2023-11-03,72.90000000000146,58.400000000001455,-14.5
2023-11-06,-67.59999999998399,-208.1999999999898,-140.60000000000582
2023-11-07,-415.69999999991705,-419.19999999991705,-3.5
2023-11-08,-316.99999999995634,-306.99999999998545,9.999999999970896
2023-11-09,-458.4999999999709,-486.20000000001164,-27.700000000040745
2023-11-10,6122.499999999964,6124.499999999993,2.000000000029104
2023-11-13,-452.99999999994907,-450.49999999994907,2.5
2023-11-14,640.9999999999709,636.9999999999709,-4.0
2023-11-15,153.60000000007858,153.60000000007858,0.0
2023-11-16,-739.6999999999243,-715.6999999999243,24.0
2023-11-17,-470.59999999999127,-458.09999999999127,12.5
2023-11-20,1487.100000000064,1482.100000000064,-5.0
2023-11-21,244.2000000000844,203.40000000009604,-40.79999999998836
2023-11-22,484.30000000001746,492.90000000008877,8.600000000071304
2023-11-23,-62.89999999999418,-62.900000000001455,-7.275957614183426e-12
2023-11-24,-112.59999999990396,-190.69999999988067,-78.09999999997672
2023-11-27,-310.39999999993597,-254.49999999988358,55.90000000005239
2023-11-28,-590.3000000000538,-595.1000000000495,-4.799999999995634
2023-11-29,676.5000000000582,516.1000000000713,-160.3999999999869
2023-11-30,-281.1000000000422,-216.1000000000131,65.0000000000291
2023-12-01,-769.5999999998749,-769.5999999998749,0.0
2023-12-04,1042.4000000000815,970.1000000000931,-72.29999999998836
2023-12-05,-1097.2999999998137,-1012.9999999998327,84.29999999998108
2023-12-06,273.3000000000684,308.5000000000291,35.19999999996071
2023-12-07,2562.699999999655,2580.6999999997133,18.000000000058208
2023-12-08,-1053.099999999933,-1065.099999999933,-12.0
2023-12-11,-243.39999999996508,-243.39999999996508,0.0
2023-12-12,-497.39999999990687,-497.39999999990687,0.0
2023-12-13,-598.099999999904,-565.7999999999156,32.29999999998836
2023-12-14,552.900000000096,572.400000000096,19.5
2023-12-15,-119.70000000001164,-162.0,-42.29999999998836
2023-12-18,160.4999999999709,146.9999999999709,-13.5
2023-12-19,55.200000000040745,55.200000000040745,0.0
2023-12-20,1247.8000000001484,1278.8000000001484,31.0
2023-12-21,1201.9000000000233,1329.3999999999069,127.49999999988358
2023-12-22,-338.19999999991705,-339.19999999991705,-1.0
2023-12-26,742.9000000000669,742.9000000000669,0.0
2023-12-27,-489.0000000000364,-485.5000000000364,3.5
2023-12-28,-14.099999999925785,-17.599999999925785,-3.5
2023-12-29,-56.599999999962165,-61.09999999996944,-4.500000000007276
2024-01-02,855.6000000000931,673.8000000001048,-181.79999999998836
2024-01-03,175.9000000001397,221.10000000010768,45.199999999967986
2024-01-04,-1122.400000000016,-1062.5999999999767,59.80000000003929
2024-01-05,406.6999999999898,374.1999999999316,-32.50000000005821
2024-01-08,4589.400000000023,4580.900000000023,-8.5
2024-01-09,-444.79999999989377,-448.29999999989377,-3.5
2024-01-10,-252.5,-252.5,0.0
2024-01-11,-18.699999999895226,3.800000000104774,22.5
2024-01-12,-522.9999999999491,-664.4999999999636,-141.50000000001455
2024-01-15,-357.09999999999854,-352.099999999984,5.000000000014552
2024-01-16,132.10000000002765,56.100000000034925,-75.99999999999272
2024-01-17,285.0000000000655,423.30000000008295,138.30000000001746
2024-01-18,-524.8999999999069,-524.8999999999141,-7.275957614183426e-12
2024-01-19,-191.89999999996508,-191.89999999996508,0.0
2024-01-22,-257.7999999998865,-238.2999999998865,19.5
2024-01-23,-435.4999999999709,-333.20000000001164,102.29999999995925
2024-01-24,294.10000000012224,504.80000000004657,210.69999999992433
2024-01-25,-785.1000000001368,-899.1000000000931,-113.99999999995634
2024-01-26,-1215.8999999999214,-1324.1999999999389,-108.30000000001746
2024-01-29,1428.499999999971,1739.5000000000437,311.00000000007276
2024-01-30,1352.7000000000917,1315.9000000001033,-36.79999999998836
2024-01-31,-2957.0000000001164,-2859.500000000022,97.50000000009459
2024-02-01,4006.2999999998137,4181.099999999882,174.8000000000684
2024-02-02,-841.7999999998865,-788.4999999998981,53.29999999998836
2024-02-05,-627.4999999999491,-621.9999999999491,5.5
2024-02-06,-246.39999999992142,-246.39999999992142,0.0
2024-02-07,47.39999999997963,19.399999999979627,-28.0
2024-02-08,-370.1999999999971,-372.6999999999971,-2.5
2024-02-09,-1.5,-1.5,0.0
2024-02-12,334.50000000004366,334.50000000004366,0.0
2024-02-13,44.59999999990396,40.59999999990396,-4.0
2024-02-14,-648.3999999999069,-615.8999999999069,32.5
2024-02-15,-484.39999999990687,-525.6999999998952,-41.29999999998836
2024-02-16,1573.5000000001237,1573.5000000001237,0.0
2024-02-19,-198.79999999993743,-173.79999999990832,25.000000000029104
2024-02-20,-94.29999999993015,-186.0999999999185,-91.79999999998836
2024-02-21,-201.99999999989814,-201.99999999989814,0.0
2024-02-22,-241.99999999996362,-311.4999999999636,-69.5
2024-02-23,104.20000000004075,155.5000000000582,51.30000000001746
2024-02-26,-1262.5000000000437,-1271.0000000000437,-8.5
2024-02-27,-1693.3999999999141,-1387.5999999999258,305.79999999998836
2024-02-28,112.50000000013097,70.50000000013097,-42.0
2024-02-29,1163.9999999998254,1169.199999999837,5.2000000000116415
2024-03-01,442.3000000000029,604.1999999999971,161.89999999999418
2024-03-04,-465.39999999997235,-468.90000000000146,-3.500000000029104
2024-03-05,225.8000000000029,154.2999999999447,-71.50000000005821
2024-03-06,-307.09999999988213,-300.09999999988213,7.0
2024-03-07,3402.8999999998487,3402.8999999998487,0.0
2024-03-08,-436.1999999998807,-585.7999999998865,-149.60000000000582
2024-03-11,-596.9999999999709,-618.9999999999709,-22.0
2024-03-12,732.3000000000684,512.8000000000684,-219.5
2024-03-13,-219.79999999993743,-165.49999999994907,54.29999999998836
2024-03-14,-2091.7999999999447,-1867.9999999999345,223.8000000000102
2024-03-15,182.40000000010332,465.9000000000815,283.4999999999782
2024-03-18,1608.6000000000422,1656.600000000013,47.999999999970896
2024-03-19,1284.1999999999243,1284.1999999999825,5.820766091346741e-11
2024-03-20,-831.6999999999243,-658.1999999999098,173.50000000001455
2024-03-21,-22.09999999993306,-19.599999999947613,2.499999999985448
2024-03-22,-1050.6000000000495,-1078.599999999933,-27.999999999883585
2024-03-25,-178.0999999999476,-181.0999999999476,-3.0
2024-03-26,76.59999999999854,76.59999999999854,0.0
2024-03-27,61.90000000008149,-57.59999999997672,-119.50000000005821
2024-03-28,-268.5999999999476,-276.5999999999476,-8.0
2024-04-01,-483.99999999991996,-596.0999999998967,-112.09999999997672
2024-04-02,807.5000000001091,871.3000000000975,63.79999999998836
2024-04-03,-1047.3999999999214,-1047.3999999999214,0.0
2024-04-04,1771.8000000000175,1731.8000000000175,-40.0
2024-04-05,1850.4999999997672,1838.9999999997672,-11.5
2024-04-08,-1164.4000000000306,-1164.4000000000306,0.0
2024-04-09,-297.2999999999811,-218.99999999996362,78.30000000001746
2024-04-10,-1082.699999999888,-1398.3999999998414,-315.69999999995343
2024-04-11,620.2000000000044,11.200000000026193,-608.9999999999782
2024-04-12,1551.6000000001222,1591.3000000001412,39.70000000001892
2024-04-15,1002.100000000064,938.3000000000757,-63.79999999998836
2024-04-16,-1396.1999999999098,-815.6999999999389,580.4999999999709
2024-04-17,-572.49999999992,-668.0000000000655,-95.50000000014552
2024-04-18,-1391.9999999999127,-1330.1999999999243,61.79999999998836
2024-04-19,125.4999999998472,99.49999999989814,-25.99999999994907
2024-04-22,-23.79999999996653,-164.0999999999476,-140.29999999998108
2024-04-23,1719.0000000001091,1900.3000000000975,181.29999999998836
2024-04-24,1704.4999999998763,1482.49999999976,-222.00000000011642
2024-04-25,4958.800000000003,4953.299999999945,-5.500000000058208
2024-04-26,-1438.4999999999636,-1533.3000000000102,-94.80000000004657
2024-04-29,-485.4999999999927,-547.4999999999636,-61.999999999970896
2024-04-30,4766.099999999795,4800.5999999997075,34.49999999991269
2024-05-01,1508.4000000000524,1628.4000000000524,120.0
2024-05-02,2052.100000000093,2026.1000000000931,-26.0
2024-05-03,-820.5999999998821,-820.5999999998821,0.0
2024-05-06,-281.4999999999418,-283.9999999999418,-2.5
2024-05-07,-168.39999999990687,-168.39999999990687,0.0
2024-05-08,-84.1999999999025,3.9000000001033186,88.10000000000582
2024-05-09,-587.2000000002226,-603.7000000001935,-16.499999999970896
2024-05-10,-127.29999999989377,-130.79999999989377,-3.5
2024-05-13,-494.6999999999607,-486.3999999999578,8.30000000000291
2024-05-14,-334.4000000000233,-510.0999999999476,-175.69999999992433
2024-05-15,-703.8000000000029,-695.2999999999884,8.500000000014552
2024-05-16,133.40000000006694,133.40000000006694,0.0
2024-05-17,-362.0,-354.20000000001164,7.7999999999883585
2024-05-20,-330.4999999999054,-121.79999999998108,208.69999999992433
2024-05-21,289.20000000010623,232.20000000013533,-56.999999999970896
2024-05-22,-290.0999999998385,-296.5999999998385,-6.5
2024-05-23,656.6999999999898,660.700000000048,4.000000000058208
2024-05-24,1697.1000000001004,1697.1000000001004,0.0
2024-05-27,128.40000000000873,128.40000000000873,0.0
2024-05-28,-350.29999999983556,-365.79999999983556,-15.5
2024-05-29,626.9999999999782,626.9999999999782,0.0
2024-05-30,-1558.3999999999942,-1418.1000000000058,140.29999999998836
2024-05-31,3470.099999999926,3488.599999999984,18.500000000058208
2024-06-03,632.2999999999738,632.2999999999738,0.0
2024-06-04,-788.4999999998836,-788.4999999998836,0.0
2024-06-05,1383.5999999999913,1383.5999999999913,0.0
2024-06-06,-180.49999999995634,-194.99999999995634,-14.5
2024-06-07,-390.5999999998967,-437.39999999991414,-46.80000000001746
2024-06-10,-514.699999999917,-524.5999999999185,-9.900000000001455
2024-06-11,-232.69999999995343,-272.9999999999636,-40.300000000010186
2024-06-12,-886.7999999998865,-908.2999999998865,-21.5
2024-06-13,-417.3999999999505,-425.8999999999796,-8.500000000029104
2024-06-14,-544.4999999999782,-636.2999999999956,-91.80000000001746
2024-06-17,-152.29999999995925,-141.79999999995925,10.5
2024-06-18,-770.2999999999738,-718.2999999999738,52.0
2024-06-19,14.799999999995634,10.299999999995634,-4.5
2024-06-20,1060.00000000016,1061.000000000131,0.9999999999708962
2024-06-21,-961.6999999999025,-948.1999999999025,13.5
2024-06-24,-272.39999999990687,-248.5999999999185,23.79999999998836
2024-06-25,1756.4999999998108,1684.1999999997643,-72.30000000004657
2024-06-26,-913.9999999998981,-913.9999999998981,0.0
2024-06-27,-168.50000000002183,-298.59999999999854,-130.09999999997672
2024-06-28,819.9000000001033,819.9000000001033,0.0
2024-07-01,900.3999999998996,1000.6999999999462,100.30000000004657
2024-07-02,-460.7999999999447,-443.2999999999447,17.5
2024-07-03,-98.59999999997672,-98.59999999997672,0.0
2024-07-04,26.70000000001164,26.70000000001164,0.0
2024-07-05,480.199999999968,455.1999999999971,-24.999999999970896
2024-07-08,-190.29999999998108,-154.99999999999272,35.29999999998836
2024-07-09,-236.59999999994034,-231.09999999994034,5.5
2024-07-10,385.29999999998836,385.29999999998836,0.0
2024-07-11,1790.800000000163,1659.7000000001863,-131.09999999997672
2024-07-12,968.4000000000742,1488.2000000000626,519.7999999999884
2024-07-15,684.1999999998734,684.1999999999025,2.9103830456733704e-11
2024-07-16,-819.8999999999651,-813.3999999999651,6.5
2024-07-17,2485.600000000086,2485.600000000086,0.0
2024-07-18,-3663.4000000003434,-3453.7000000002154,209.70000000012806
2024-07-19,-868.9999999999127,-820.4999999999127,48.5
2024-07-22,1020.5999999996784,957.7999999996318,-62.800000000046566
2024-07-23,-1203.7999999999447,-1194.2999999999447,9.5
2024-07-24,2228.600000000035,2228.600000000035,0.0
2024-07-25,-493.0999999998967,-278.7999999999083,214.29999999998836
2024-07-26,-388.0999999998603,-362.29999999986467,25.799999999995634
2024-07-29,-1642.7000000000116,-1707.8000000000538,-65.1000000000422
2024-07-30,-1474.900000000067,-1483.9000000001251,-9.000000000058208
2024-07-31,3708.0000000000873,3681.2000000000116,-26.80000000007567
2024-08-01,6572.499999999956,6828.999999999811,256.4999999998545
2024-08-02,-3025.4999999999127,-2910.999999999898,114.50000000001455
2024-08-05,4824.300000000061,4767.500000000116,-56.7999999999447
2024-08-06,-2985.499999999898,-2985.499999999898,0.0
2024-08-07,-1642.300000000032,-1458.4999999999854,183.80000000004657
2024-08-08,8031.600000000035,8031.599999999977,-5.820766091346741e-11
2024-08-09,-1922.7999999999738,-1980.2999999999738,-57.5
2024-08-12,-1484.5999999999476,-1484.5999999999476,0.0
2024-08-13,2386.7999999999884,2382.7999999999884,-4.0
2024-08-14,-962.4000000000669,-962.4000000000669,0.0
2024-08-15,-1148.099999999933,-1148.099999999933,0.0
2024-08-16,354.8000000001048,404.60000000009313,49.79999999998836
2024-08-19,-259.7999999999738,-901.699999999968,-641.8999999999942
2024-08-20,-93.39999999990687,-93.39999999990687,0.0
2024-08-21,-296.4999999999709,-315.99999999995634,-19.499999999985448
2024-08-22,548.2000000001717,518.2000000001572,-30.000000000014552
2024-08-23,-625.9999999999563,-685.7999999998865,-59.79999999993015
2024-08-26,66.80000000009022,-39.99999999992724,-106.80000000001746
2024-08-27,-425.2999999998574,-437.7999999998574,-12.5
2024-08-28,1613.599999999802,1589.8999999997905,-23.70000000001164
2024-08-29,3664.0999999997584,3604.0999999997293,-60.000000000029104
2024-08-30,-381.4999999999418,-370.9999999999127,10.500000000029104
2024-09-02,-496.59999999993306,-473.09999999993306,23.5
2024-09-03,3754.5000000001746,3741.5000000001746,-13.0
2024-09-04,-1517.0000000000437,-1522.8000000001775,-5.800000000133878
2024-09-05,-3538.199999999808,-3467.399999999907,70.79999999990105
2024-09-06,405.800000000163,432.8000000001339,26.999999999970896
2024-09-09,2558.800000000061,2545.800000000032,-13.000000000029104
2024-09-10,-1834.6000000001077,-1843.1000000001077,-8.5
2024-09-11,377.49999999992724,380.99999999992724,3.5
2024-09-12,-1883.5999999999622,-1897.0999999999622,-13.5
2024-09-13,-744.9999999999563,-622.199999999968,122.79999999998836
2024-09-16,-1062.299999999872,-1185.299999999901,-123.0000000000291
2024-09-17,-520.3999999998487,-424.0999999998603,96.29999999998836
2024-09-18,-3701.29999999993,-3667.299999999901,34.000000000029104
2024-09-19,5180.599999999773,4745.499999999796,-435.0999999999767
2024-09-20,-503.9999999999418,-531.9999999999418,-28.0
2024-09-23,-571.5999999999331,-496.4999999999127,75.10000000002037
2024-09-24,-350.2999999999738,-434.8000000000029,-84.5000000000291
2024-09-25,-558.4999999999127,-503.99999999989814,54.50000000001455
2024-09-26,1065.4000000001397,995.4000000001397,-70.0
2024-09-27,-219.19999999986612,-28.099999999889405,191.09999999997672
2024-09-30,-1729.9999999999418,-1743.500000000029,-13.500000000087311
2024-10-01,1612.2999999999738,1658.800000000032,46.50000000005821
2024-10-02,-1162.2999999999156,-1146.7999999999156,15.5
2024-10-03,-656.4999999998836,-652.4999999998836,4.0
2024-10-04,135.60000000006403,177.10000000006403,41.5
2024-10-07,198.80000000009022,198.80000000009022,0.0
2024-10-08,2604.8000000000175,2540.800000000134,-63.999999999883585
2024-10-09,-242.89999999989232,-321.6999999998807,-78.79999999998836
2024-10-10,-441.39999999990687,-595.4999999999418,-154.10000000003492
2024-10-11,-1272.9999999999127,-1090.2999999999593,182.69999999995343
2024-10-14,1153.4000000000378,1134.9000000000378,-18.5
2024-10-15,950.5000000001601,760.7000000001717,-189.79999999998836
2024-10-16,-1456.0999999999476,-1456.5999999999476,-0.5
2024-10-17,67.90000000012515,67.90000000012515,0.0
2024-10-18,213.89999999963038,220.8999999996886,7.000000000058208
2024-10-21,89.20000000006985,-24.29999999993015,-113.5
2024-10-22,-498.6999999999098,-500.8999999999214,-2.2000000000116415
2024-10-23,1582.1000000001077,1635.900000000096,53.79999999998836
2024-10-24,-746.8999999999069,-678.5999999999185,68.29999999998836
2024-10-25,1098.1000000000931,1098.1000000000931,0.0
2024-10-28,-1497.600000000224,-1482.6000000002823,14.999999999941792
2024-10-29,2098.7999999998283,2078.2999999998865,-20.499999999941792
2024-10-30,357.4000000001397,331.4000000001397,-26.0
2024-10-31,-2527.0999999999913,-2425.699999999968,101.40000000002328
2024-11-01,-867.7000000000407,-854.1999999999825,13.500000000058208
2024-11-04,-2274.69999999991,-2262.1999999998807,12.500000000029104
2024-11-05,1896.0000000001019,1901.0000000000728,4.999999999970896
2024-11-06,-1394.999999999869,-1394.999999999869,0.0
2024-11-07,0.0,0.0,0.0
2024-11-08,-259.69999999995343,-259.69999999995343,0.0
2024-11-11,-250.5999999999185,-250.5999999999185,0.0
2024-11-12,-720.6999999998661,-720.6999999998661,0.0
2024-11-13,-1221.3999999998632,-1055.7999999998865,165.59999999997672
2024-11-14,-420.69999999997526,-515.6999999998807,-94.99999999990541
2024-11-15,-141.60000000002765,-141.60000000003492,-7.275957614183426e-12
2024-11-18,-611.2999999999374,-530.9999999999491,80.29999999998836
2024-11-19,1086.6999999999898,907.9000000000306,-178.79999999995925
2024-11-20,-717.6999999999025,-659.6999999998152,58.00000000008731
2024-11-21,-2143.1999999998807,-1891.5999999998894,251.59999999999127
2024-11-22,-901.3000000000175,-881.8000000000029,19.500000000014552
2024-11-25,80.7000000000553,-5.799999999944703,-86.5
2024-11-26,-900.8999999999505,-716.0999999999622,184.79999999998836
2024-11-27,685.9000000000524,753.4000000000524,67.5
2024-11-28,116.69999999999709,116.69999999999709,0.0
2024-11-29,-260.0999999998603,-312.39999999984866,-52.29999999998836
2024-12-02,224.30000000001746,261.80000000001746,37.5
2024-12-03,-173.6999999999607,-137.89999999997235,35.79999999998836
2024-12-04,-229.49999999996362,-230.99999999996362,-1.5
2024-12-05,-219.1999999999316,-246.6999999999607,-27.500000000029104
2024-12-06,1553.9999999997453,1444.9999999997162,-109.0000000000291
2024-12-09,540.5000000001091,527.5000000001091,-13.0
2024-12-10,-224.8999999999287,-208.8999999998996,16.000000000029104
2024-12-11,2849.8000000000175,2978.599999999984,128.79999999996653
2024-12-12,-292.6999999999025,-359.7999999998865,-67.09999999998399
2024-12-13,349.7999999997628,246.49999999986903,-103.29999999989377
2024-12-16,1709.5000000000218,1197.6000000000058,-511.900000000016
2024-12-17,-921.8999999998487,-783.8999999998632,137.99999999998545
2024-12-18,-637.4999999999491,-642.2999999998865,-4.799999999937427
2024-12-19,-2150.5999999999694,-1633.2999999999738,517.2999999999956
2024-12-20,7495.499999999884,7236.899999999849,-258.6000000000349
2024-12-23,-1841.0999999999185,-1740.5999999998894,100.5000000000291
2024-12-24,442.40000000000873,436.40000000000873,-6.0
2024-12-26,-821.099999999904,-660.9999999998981,160.10000000000582
2024-12-27,1139.00000000016,1102.0000000000728,-37.00000000008731
2024-12-30,1469.600000000035,1500.0999999999767,30.499999999941792
2024-12-31,-1901.3999999998778,-2081.399999999907,-180.0000000000291
2025-01-02,-2121.5000000000873,-2041.0000000001164,80.4999999999709
2025-01-03,1214.300000000032,1688.5000000001019,474.20000000006985
2025-01-06,968.6000000000204,1023.6000000000204,55.0
2025-01-07,538.4000000001834,585.100000000195,46.70000000001164
2025-01-08,-4243.099999999846,-4563.399999999892,-320.30000000004657
2025-01-09,-388.49999999995634,-387.49999999995634,1.0
2025-01-10,-2173.4000000000233,-2139.399999999907,34.000000000116415
2025-01-13,535.1000000001368,516.1000000001368,-19.0
2025-01-14,-3436.800000000265,-3443.1000000003114,-6.300000000046566
2025-01-15,178.50000000003638,341.0000000000364,162.5
2025-01-16,1390.0999999998457,1644.3999999996595,254.29999999981374
2025-01-17,4363.700000000004,4366.700000000004,3.0
2025-01-20,-206.69999999996799,-238.1999999999971,-31.500000000029104
2025-01-21,-900.6999999999098,-911.6999999998807,-10.999999999970896
2025-01-22,-25.899999999979627,7.900000000023283,33.80000000000291
2025-01-23,-239.69999999996799,-185.19999999996799,54.5
2025-01-24,-28.099999999903957,-47.099999999889405,-18.999999999985448
2025-01-27,6340.200000000172,6385.7000000001135,45.49999999994179
2025-01-28,409.5000000000582,409.5000000000582,0.0
2025-01-29,-1714.2999999998428,-1726.2999999998428,-12.0
2025-01-30,-1335.299999999872,-1356.0999999998603,-20.79999999998836
2025-01-31,1303.2000000000844,1539.7000000000553,236.4999999999709
2025-02-03,4877.199999999764,5008.699999999706,131.4999999999418
2025-02-04,-2684.300000000265,-2706.300000000265,-22.0
2025-02-05,312.40000000000873,250.40000000000873,-62.0
2025-02-06,-771.6999999998952,-738.3999999999069,33.29999999998836
2025-02-07,120.4000000001397,-124.0999999998894,-244.5000000000291
2025-02-10,2860.5000000000146,2849.4999999999854,-11.000000000029104
2025-02-11,-441.49999999986903,-385.6999999998807,55.79999999998836
2025-02-12,-1585.5999999999767,-1125.899999999965,459.70000000001164
2025-02-13,-1424.5999999998603,-1229.799999999872,194.79999999998836
2025-02-14,-301.19999999995343,-304.69999999995343,-3.5
2025-02-17,-84.39999999996508,-107.89999999996508,-23.5
2025-02-18,-681.999999999869,-701.6999999998807,-19.70000000001164
2025-02-19,-445.9999999999127,-418.9999999999127,27.0
2025-02-20,-82.69999999990978,-82.69999999990978,0.0
2025-02-21,4021.8999999998487,4021.8999999998487,0.0
2025-02-24,-3168.1999999998516,-3175.19999999991,-7.000000000058208
2025-02-25,-1927.3999999999796,-1834.4000000000378,92.99999999994179
2025-02-26,-1367.3000000000611,-1290.8000000001048,76.49999999995634
2025-02-27,5703.499999999665,5657.699999999662,-45.80000000000291
2025-02-28,1509.9999999998254,1338.2000000000698,-171.79999999975553
2025-03-03,5018.099999999569,5086.0999999996275,68.00000000005821
2025-03-04,-2405.3000000000466,-2405.3000000000466,0.0
2025-03-05,-1413.7999999999302,-1463.7999999999302,-50.0
2025-03-06,2394.2999999997555,2380.2999999997555,-14.0
2025-03-07,-1811.4999999999418,-1318.6999999998952,492.80000000004657
2025-03-10,9848.299999999697,9848.299999999697,0.0
2025-03-11,-4389.499999999971,-4361.499999999971,28.0
2025-03-12,-3892.5999999999767,-3882.0999999999767,10.5
2025-03-13,-1437.1000000002095,-1437.1000000002095,0.0
2025-03-14,2214.9000000000815,2217.4000000000815,2.5
2025-03-17,167.2000000000844,167.2000000000844,0.0
2025-03-18,316.5999999999185,200.30000000004657,-116.29999999987194
2025-03-19,-31.59999999993306,-62.59999999993306,-31.0
2025-03-20,-1053.3999999998923,-1041.8999999998923,11.5
2025-03-21,1288.400000000096,1291.400000000067,2.999999999970896
2025-03-24,-173.09999999997672,-173.09999999997672,0.0
2025-03-25,-313.2999999998865,-270.4999999999127,42.79999999997381
2025-03-26,4890.899999999572,4890.899999999499,-7.275957614183426e-11
2025-03-27,-3353.0999999998894,-3364.099999999933,-11.000000000043656
2025-03-28,804.2000000000844,802.2000000000698,-2.000000000014552
2025-03-31,2320.599999999831,2320.599999999773,-5.820766091346741e-11
2025-04-01,-4657.900000000154,-4745.199999999968,-87.29999999981374
2025-04-02,4740.199999999953,5081.199999999953,341.0
2025-04-03,-3949.6999999999243,-3944.6999999999243,5.0
2025-04-04,-9233.199999999866,-9092.399999999878,140.79999999998836
2025-04-07,3007.2999999999884,2459.0,-548.2999999999884
2025-04-08,16663.299999999814,16663.299999999814,0.0
2025-04-09,4906.00000000016,4074.7000000001426,-831.3000000000175
2025-04-10,5539.699999999968,5716.1999999998225,176.49999999985448
2025-04-11,-7267.299999999857,-7267.299999999857,0.0
2025-04-14,-1456.2000000000262,-1607.6999999999098,-151.49999999988358
2025-04-15,-2695.399999999936,-2696.899999999936,-1.5
2025-04-16,931.3999999997468,1001.3999999997468,70.0
2025-04-17,-1510.3000000003085,-1491.8000000003085,18.5
2025-04-21,2417.800000000061,2507.600000000035,89.7999999999738
2025-04-22,1571.4000000000087,1191.9000000000524,-379.49999999995634
2025-04-23,-283.9999999999709,-202.4999999999418,81.5000000000291
2025-04-24,4848.900000000023,4848.900000000023,0.0
2025-04-25,-2965.4000000000087,-2965.4000000000087,0.0
2025-04-28,-1975.4000000002707,-1889.4000000002707,86.0
2025-04-29,-3012.9000000000087,-3063.9000000000087,-51.0
2025-04-30,5294.199999999968,5036.89999999998,-257.29999999998836
2025-05-01,568.3000000000029,568.2999999999447,-5.820766091346741e-11
2025-05-02,5122.599999999889,5125.599999999889,3.0
2025-05-05,-519.4999999999272,-528.9999999999272,-9.5
2025-05-06,-2089.3999999999505,-2126.3999999999505,-37.0
2025-05-07,-3121.699999999939,-3047.9999999999127,73.7000000000262
2025-05-08,73.20000000004075,-190.39999999992142,-263.59999999996217
2025-05-09,-2027.199999999997,-2170.699999999997,-143.5
2025-05-12,3294.600000000035,3255.600000000064,-38.999999999970896
2025-05-13,-168.89999999996508,-168.89999999996508,0.0
2025-05-14,-828.7000000000262,-828.7000000000262,0.0
2025-05-15,-357.7999999998574,-341.7999999998574,16.0
2025-05-16,-791.7999999999302,-774.0999999999185,17.70000000001164
2025-05-19,1644.0000000000873,1649.5000000000437,5.499999999956344
2025-05-20,-434.99999999986903,-365.69999999995343,69.2999999999156
2025-05-21,694.6000000001368,645.6000000001368,-49.0
2025-05-22,-2645.8999999999796,-2265.800000000003,380.0999999999767
2025-05-23,-428.1999999999389,-411.6999999999389,16.5
2025-05-26,1927.0999999999913,1927.0999999999913,0.0
2025-05-27,-247.39999999989232,-247.39999999989232,0.0
2025-05-28,-399.6999999998952,-401.6999999998952,-2.0
2025-05-29,1860.099999999904,1889.599999999904,29.5
2025-05-30,836.7000000001426,864.2000000001426,27.5
2025-06-02,-656.6999999999534,-764.9999999999418,-108.29999999998836
2025-06-03,-297.9999999999418,-297.9999999999418,0.0
2025-06-04,-565.7999999999884,-565.7999999999884,0.0
2025-06-05,56.80000000009022,99.80000000014843,43.00000000005821
2025-06-06,2640.8999999997613,2628.8999999997613,-12.0
2025-06-09,-494.8000000000029,-456.49999999998545,38.30000000001746
2025-06-10,17.500000000058208,-363.49999999995634,-381.00000000001455
2025-06-11,-1161.6999999999098,-1161.6999999999243,-1.4551915228366852e-11
2025-06-12,-500.59999999984575,-301.49999999986903,199.09999999997672
2025-06-13,990.5000000000728,818.8999999999505,-171.60000000012224
2025-06-16,2913.0,2838.500000000029,-74.4999999999709
2025-06-17,-115.99999999992724,-115.99999999992724,0.0
2025-06-18,-2895.2999999999156,-2800.4000000000524,94.89999999986321
2025-06-19,448.7000000000262,448.70000000001164,-1.4551915228366852e-11
2025-06-20,838.5999999997293,771.799999999741,-66.79999999998836
2025-06-23,661.9000000001106,515.4000000001397,-146.4999999999709
2025-06-24,-164.59999999999127,-164.59999999996217,2.9103830456733704e-11
2025-06-25,-135.0999999999185,-136.5999999999185,-1.5
2025-06-26,-310.9999999999418,-310.9999999999418,0.0
2025-06-27,-129.69999999983702,-151.19999999983702,-21.5
2025-06-30,-519.8999999999069,-519.8999999999069,0.0
2025-07-01,-202.39999999990687,-202.39999999990687,0.0
2025-07-02,202.30000000001746,175.80000000004657,-26.499999999970896
2025-07-03,-134.39999999996508,-134.39999999996508,0.0
2025-07-04,75.09999999993306,85.09999999990396,9.999999999970896
2025-07-07,-3587.30000000009,-3330.7000000001426,256.5999999999476
2025-07-08,-1591.5999999999767,-1344.7999999999593,246.80000000001746
2025-07-09,750.7000000000116,867.2000000000116,116.5
2025-07-10,-641.2999999999302,-643.2999999999302,-2.0
2025-07-11,-848.8999999998487,-848.8999999999069,-5.820766091346741e-11
2025-07-14,-443.3999999999651,-443.3999999999651,0.0
2025-07-15,141.70000000009895,128.20000000009895,-13.5
2025-07-16,282.4999999998836,444.79999999993015,162.30000000004657
2025-07-17,-344.69999999995343,-339.69999999995343,5.0
2025-07-18,-328.3999999999214,-328.3999999999214,0.0
2025-07-21,503.50000000001455,566.3000000000029,62.79999999998836
2025-07-22,-1665.8999999998778,-1681.8999999998778,-16.0
2025-07-23,-512.9999999998836,-512.9999999998836,0.0
2025-07-24,-450.0999999999185,-450.0999999999185,0.0
2025-07-25,-170.39999999996508,-180.89999999996508,-10.5
2025-07-28,-330.79999999993015,-343.29999999993015,-12.5
2025-07-29,394.00000000010186,625.2000000001135,231.20000000001164
2025-07-30,2397.6000000000204,2531.599999999904,133.99999999988358
2025-07-31,2665.2999999997555,2665.2999999997555,0.0
2025-08-01,-3020.5000000000873,-3037.0000000001455,-16.500000000058208
2025-08-04,4114.100000000035,4109.100000000035,-5.0
2025-08-05,244.19999999989523,215.19999999995343,-28.999999999941792
2025-08-06,4078.0999999996566,4139.599999999831,61.50000000017462
2025-08-07,328.89999999987776,340.39999999993597,11.500000000058208
2025-08-08,-253.89999999996508,-253.89999999996508,0.0
2025-08-11,100.90000000005239,93.40000000005239,-7.5
2025-08-12,2253.2999999999884,2204.2999999999884,-49.0
2025-08-13,-145.1999999999971,-237.50000000004366,-92.30000000004657
2025-08-14,-993.599999999904,-1105.1999999999098,-111.60000000000582
2025-08-15,-1169.899999999965,-1144.8999999999942,24.999999999970896
2025-08-18,-1103.2999999999156,-1098.7999999999156,4.5
2025-08-19,724.4000000000524,749.4000000000524,25.0
2025-08-20,1178.4999999999854,1052.3999999999505,-126.10000000003492
2025-08-21,-531.2999999999738,-494.7999999999738,36.5
2025-08-22,2423.5000000000728,2462.20000000007,38.69999999999709
2025-08-25,-381.09999999996217,-409.5999999999476,-28.499999999985448
2025-08-26,904.3999999999214,922.3999999998632,17.999999999941792
2025-08-27,-725.7999999998283,-758.7999999998283,-33.0
2025-08-28,67.30000000007567,82.80000000007567,15.5
2025-08-29,1620.099999999802,1694.0999999997439,73.99999999994179
2025-09-01,-916.899999999936,-899.399999999936,17.5
2025-09-02,2383.000000000102,2463.000000000102,80.0
2025-09-03,-618.9000000000233,-618.8999999999651,5.820766091346741e-11
2025-09-04,77.99999999995634,87.99999999995634,10.0
2025-09-05,1202.5999999999622,1202.5999999999622,0.0
2025-09-08,-211.49999999995634,-199.99999999995634,11.5
2025-09-09,-139.39999999995052,-119.39999999995052,20.0
2025-09-10,159.2999999999738,155.2999999999738,-4.0
2025-09-11,-98.30000000003201,-55.300000000032014,43.0
2025-09-12,14.0,2.0,-12.0
2025-09-15,265.20000000001164,254.70000000001164,-10.5
2025-09-16,183.40000000000873,147.59999999996217,-35.800000000046566
2025-09-17,-1103.1999999999243,-1147.0999999998894,-43.899999999965075
2025-09-18,-459.1999999999098,-458.1999999999098,1.0
2025-09-19,402.70000000004075,412.70000000004075,10.0
2025-09-22,-356.39999999990687,-295.5999999999185,60.79999999998836
2025-09-23,11.50000000007276,1.5000000000727596,-10.0
2025-09-24,-486.9999999999418,-487.4999999999418,-0.5
2025-09-25,827.8000000000175,836.8000000000175,9.0
2025-09-26,-1114.7999999999447,-1396.3999999999214,-281.5999999999767
2025-09-29,182.90000000006694,258.2000000000553,75.29999999998836
2025-09-30,-1441.0999999998749,-1213.7999999998865,227.29999999998836
2025-10-01,868.2000000000553,868.2000000000553,0.0
2025-10-02,-296.3000000000029,-332.8000000000029,-36.5
2025-10-03,344.800000000032,325.300000000032,-19.5
2025-10-06,1067.900000000067,1147.900000000067,80.0
2025-10-07,241.4000000001106,241.4000000001106,0.0
2025-10-08,2314.500000000058,2311.500000000058,-3.0
2025-10-09,14.699999999778811,53.6999999996915,38.99999999991269
2025-10-10,7540.599999999977,7602.099999999889,61.49999999991269
2025-10-13,1823.3999999999796,2040.399999999936,216.99999999995634
2025-10-14,213.99999999976717,559.4999999995198,345.4999999997526
2025-10-15,1272.899999999965,1414.2000000000407,141.30000000007567
2025-10-16,907.8999999998487,907.899999999936,8.731149137020111e-11
2025-10-17,3560.5000000000873,3560.5000000001164,2.9103830456733704e-11
2025-10-20,0.0,0.0,0.0
2025-10-21,-220.99999999992724,-220.99999999995634,-2.9103830456733704e-11
2025-10-22,-365.6000000000204,-472.3999999999505,-106.79999999993015
2025-10-23,-534.1999999999971,-530.6999999999971,3.5
2025-10-24,-59.59999999997672,-59.59999999997672,0.0
2025-10-27,657.600000000064,657.6000000000495,-1.4551915228366852e-11
2025-10-28,-252.0999999999185,-252.09999999990396,1.4551915228366852e-11
2025-10-29,-1155.4999999998545,-1123.9999999998545,31.5
2025-10-30,-1874.1999999999243,-1992.199999999837,-117.99999999991269
2025-10-31,-75.50000000004366,-16.500000000014552,59.000000000029104
2025-11-03,-80.2999999999156,-77.2999999998865,3.000000000029104
2025-11-04,-225.39999999992142,-232.89999999984866,-7.49999999992724
2025-11-05,5310.199999999604,4699.799999999843,-610.3999999997613
2025-11-06,22.40000000000873,52.89999999999418,30.499999999985448
2025-11-07,2545.2000000001717,2729.50000000016,184.29999999998836
2025-11-10,-199.09999999996217,-199.09999999996217,0.0
2025-11-11,-243.4999999999709,-233.5000000000291,9.999999999941792
2025-11-12,-610.800000000294,-611.300000000294,-0.5
2025-11-13,777.7000000000116,777.7000000000116,0.0
2025-11-14,4587.000000000044,4612.500000000044,25.5
2025-11-17,-700.8000000000175,-682.3000000000175,18.5
2025-11-18,-3863.6999999999534,-3678.899999999907,184.80000000004657
2025-11-19,-3719.600000000006,-3353.8000000000175,365.79999999998836
2025-11-20,17969.899999999616,18443.399999999703,473.5000000000873
2025-11-21,-2600.6999999999825,-2403.899999999936,196.80000000004657
2025-11-24,2675.9000000000233,2688.899999999994,12.999999999970896
2025-11-25,-3604.4000000001397,-3626.9000000001397,-22.5
2025-11-26,-1064.9999999999418,-1075.9999999999418,-11.0
2025-11-27,-81.29999999998836,-81.29999999998836,0.0
2025-11-28,70.20000000009895,70.20000000009895,0.0
2025-12-01,-497.8000000001921,-496.8000000001921,1.0
2025-12-02,-394.29999999984284,-361.4999999998545,32.79999999998836
2025-12-03,-1428.5999999999185,-1428.5999999999185,0.0
2025-12-04,-1027.100000000035,-1083.5999999999767,-56.49999999994179
2025-12-05,-503.50000000010186,-537.5000000000291,-33.99999999992724
2025-12-08,-934.3999999998632,-855.6999999999243,78.69999999993888
2025-12-09,-797.4999999999418,-753.6999999999243,43.80000000001746
2025-12-10,-1461.6000000000058,-1466.0999999999185,-4.4999999999126885
2025-12-11,1802.3000000001339,1802.3000000001339,0.0
2025-12-12,3213.0999999996857,3227.5999999996857,14.5
2025-12-15,-1699.399999999805,-1699.3999999997905,1.4551915228366852e-11
2025-12-16,-958.9999999998399,-1084.7999999998428,-125.80000000000291
2025-12-17,4865.700000000041,4955.1999999999825,89.49999999994179
2025-12-18,-236.5999999998603,-261.0999999998603,-24.5
2025-12-19,2585.000000000058,2585.4000000000233,0.3999999999650754
2025-12-22,-189.69999999995343,-263.4999999999418,-73.79999999998836
2025-12-23,169.70000000004075,126.70000000004075,-43.0
2025-12-24,-115.19999999995343,-126.69999999995343,-11.5
2025-12-26,-380.5999999998894,-418.5999999998894,-38.0
2025-12-29,-1679.2999999997846,-1558.2999999998137,120.9999999999709
2025-12-30,-481.29999999987194,-474.29999999987194,7.0
2025-12-31,-324.29999999998836,-305.29999999995925,19.000000000029104
2026-01-02,1352.300000000163,1039.200000000128,-313.1000000000349
2026-01-05,589.5000000000291,603.5000000000291,14.0
2026-01-06,561.5000000001164,318.20000000012806,-243.29999999998836
2026-01-07,59.79999999998836,55.29999999998836,-4.5
2026-01-08,-2139.599999999831,-2134.099999999831,5.5
2026-01-09,-941.8999999998778,-1124.1999999998661,-182.29999999998836
2026-01-12,487.8999999999942,487.8999999999942,0.0
2026-01-13,-1568.7000000000698,-1648.0000000000582,-79.29999999998836
2026-01-14,300.0000000001164,463.0000000001164,163.0
2026-01-15,287.29999999995925,287.29999999995925,0.0
2026-01-16,-1366.299999999901,-1368.299999999901,-2.0
2026-01-19,-102.99999999988358,-93.49999999988358,9.5
2026-01-20,1215.6999999998661,1189.1999999998661,-26.5
2026-01-21,3356.4000000000524,3408.399999999994,51.99999999994179
2026-01-22,-771.8999999999069,-847.8999999999069,-76.0
2026-01-23,63.30000000016298,-414.4999999998254,-477.79999999998836
2026-01-26,749.8000000000175,919.100000000064,169.30000000004657
2026-01-27,578.6000000000931,578.6000000000931,0.0
2026-01-28,-782.0000000001164,-782.0000000001164,0.0
2026-01-29,3005.3999999998778,3046.199999999808,40.79999999993015
2026-01-30,-784.4000000003143,-738.9000000003143,45.5
2026-02-02,5261.900000000111,5195.400000000111,-66.5
2026-02-03,2192.1999999999243,2302.7000000000407,110.50000000011642
2026-02-04,3721.9999999995343,3829.999999999709,108.00000000017462
2026-02-05,2872.399999999674,2886.8999999997322,14.500000000058208
2026-02-06,9651.799999999872,9651.799999999872,0.0
2026-02-09,-2527.300000000163,-2393.5000000001746,133.79999999998836
2026-02-10,-947.5,-925.5000000000582,21.999999999941792
2026-02-11,-1314.7999999999593,-1349.600000000035,-34.80000000007567
2026-02-12,5988.899999999558,5943.89999999947,-45.00000000008731
2026-02-13,-4512.59999999986,-4316.79999999993,195.79999999993015
2026-02-16,-863.3999999999651,-861.3999999999651,2.0
2026-02-17,-2134.599999999802,-2122.099999999802,12.5
2026-02-18,-684.6999999999534,-683.1999999999534,1.5
2026-02-19,-2783.399999999994,-2491.600000000064,291.79999999993015
2026-02-20,-1485.3999999999069,-1520.8999999999069,-35.5
2026-02-23,624.4999999994761,678.7999999995227,54.300000000046566
2026-02-24,-844.0999999999185,-1002.5999999999476,-158.5000000000291
2026-02-25,252.4000000000815,252.4000000000815,0.0
2026-02-26,2174.0999999999767,2200.3999999998778,26.299999999901047
2026-02-27,-1969.3000000001048,-1925.5,43.800000000104774
2026-03-02,1056.2999999999593,1046.2999999999593,-10.0
2026-03-03,2358.4999999998254,2056.9999999998254,-301.5
2026-03-04,-2197.500000000058,-2563.300000000105,-365.80000000004657
2026-03-05,-4185.300000000221,-4132.799999999988,52.50000000023283
2026-03-06,-1129.0999999999476,-1095.5999999999476,33.5
2026-03-09,10109.40000000014,10048.40000000014,-61.0
2026-03-10,-2385.7999999999593,-2298.4999999999127,87.30000000004657
2026-03-11,-3724.600000000093,-3663.3000000000757,61.30000000001746
2026-03-12,-1899.3999999998487,-1714.5999999998312,184.80000000001746
2026-03-13,-2454.699999999866,-2359.6999999999243,94.99999999994179
2026-03-16,1952.500000000029,1974.000000000029,21.5
2026-03-17,-628.6999999998661,-607.6999999998661,21.0
2026-03-18,4028.7999999997846,4030.7999999997846,2.0
2026-03-19,-1742.599999999773,-1709.099999999773,33.5
2026-03-20,3993.9999999996217,3989.699999999575,-4.300000000046566
2026-03-23,-6470.300000000134,-6487.799999999988,-17.49999999985448
2026-03-24,-2228.4999999999127,-2890.5999999998894,-662.0999999999767
2026-03-25,-2993.8999999998196,-2912.099999999831,81.79999999998836
2026-03-26,1754.9999999999127,3192.299999999843,1437.2999999999302
2026-03-27,124.20000000015716,124.20000000012806,-2.9103830456733704e-11
2026-03-30,-544.5999999999767,-752.3999999999651,-207.79999999998836
2026-03-31,6807.200000000128,6837.5000000001455,30.300000000017462
2026-04-01,-1689.8000000000175,-1689.7999999999884,2.9103830456733704e-11
2026-04-02,3419.299999999843,3660.099999999831,240.79999999998836
2026-04-03,106.90000000002328,106.90000000002328,0.0
2026-04-06,-4547.999999999971,-4613.000000000029,-65.00000000005821
2026-04-07,-119.30000000013388,-360.3000000001339,-241.0
2026-04-08,-3491.300000000483,-3509.300000000483,-18.0
2026-04-09,-202.0999999999185,-165.0999999998894,37.000000000029104
2026-04-10,-301.4999999999418,-301.4999999999418,0.0
2026-04-13,-494.79999999990105,182.50000000017462,677.3000000000757
2026-04-14,-95.29999999998836,-82.79999999998836,12.5
2026-04-15,-381.5999999999185,-381.5999999999185,0.0
2026-04-16,-609.1000000000349,-609.0999999999767,5.820766091346741e-11
2026-04-17,1596.100000000064,1596.100000000064,0.0
2026-04-20,-1791.100000000064,-1849.4000000000524,-58.29999999998836
2026-04-21,-2067.5999999999476,-1835.5999999999185,232.0000000000291
2026-04-22,613.6000000000931,601.6000000000931,-12.0
2026-04-23,-992.5000000001455,-1026.0000000001164,-33.499999999970896
2026-04-24,52.40000000008149,52.40000000008149,0.0
2026-04-27,-515.4000000000233,-568.4000000000233,-53.0
2026-04-28,-139.70000000001164,394.6999999998952,534.3999999999069
2026-04-29,-1421.3999999997905,-1277.7999999998137,143.59999999997672
2026-04-30,4345.999999999942,3965.399999999907,-380.6000000000349
2026-05-01,-267.79999999993015,-264.29999999993015,3.5
2026-05-04,-657.1999999998952,-770.6999999998952,-113.5
2026-05-05,4252.200000000041,4845.600000000064,593.4000000000233
2026-05-06,-628.799999999901,-362.0000000001164,266.79999999978463
2026-05-07,-140.20000000018626,-164.50000000023283,-24.300000000046566
2026-05-08,7045.499999999913,7042.000000000116,-3.499999999796273
2026-05-11,-1873.3999999999069,-1601.5999999999767,271.79999999993015
2026-05-12,1974.099999999773,1868.2999999997264,-105.80000000004657
2026-05-13,-519.7000000000407,-519.7000000000407,0.0
2026-05-14,-1338.200000000128,-1265.700000000128,72.5
2026-05-15,-686.1000000002678,-585.1000000002678,101.0
2026-05-18,-3540.20000000007,-3471.2000000000116,69.00000000005821
2026-05-19,-4724.999999999942,-4797.79999999993,-72.79999999998836
2026-05-20,-716.2999999999302,-585.799999999901,130.5000000000291
2026-05-21,-1600.9999999998545,-1614.9999999999127,-14.000000000058208
2026-05-22,-568.6999999998952,-598.1999999998952,-29.5
2026-05-25,2101.100000000035,2101.100000000035,0.0
2026-05-26,61.10000000015134,69.10000000009313,7.999999999941792
2026-05-27,151.9999999999418,156.49999999976717,4.499999999825377
2026-05-28,-553.8999999999651,-706.7000000001281,-152.80000000016298
2026-05-29,-806.4999999999418,-806.5000000001164,-1.7462298274040222e-10
